# (1)t	# (2) P[5<--1](t)	# (3) P[5<--2](t)	# (4) P[5<--3](t)	# (5) P[5<--4](t)	# (6) P[5<--5](t)	# (7) P[5<--6](t)	# (8) P[5<--7](t)
0.0	0.0	0.0	0.0	0.0	0.0	0.0	0.0
1.0	1.592238354e-6	4.230065043e-11	-2.962179879e-11	-1.036478708e-10	0.0	1.515744609e-9	-6.803266681e-12
2.0	6.366786294e-6	4.223183602e-10	-2.960715121e-10	-1.034208292e-9	0.0	1.513490305e-8	-6.788388586e-11
3.0	1.431781132e-5	1.89619044e-9	-1.331528176e-9	-4.63958124e-9	0.0	6.79681283e-8	-3.045469722e-10
4.0	2.543664566e-5	5.713822408e-9	-4.021278032e-9	-1.396365604e-8	0.0	2.048618054e-7	-9.166704785e-10
5.0	3.97120479e-5	1.360419214e-8	-9.601630319e-9	-3.319351097e-8	0.0	4.879169176e-7	-2.179390504e-9
6.0	5.71303657e-5	2.775563422e-8	-1.965734162e-8	-6.758668028e-8	0.0	9.958436884e-7	-4.438614302e-9
7.0	7.767563219e-5	5.079150772e-8	-3.611856177e-8	-1.233791263e-7	0.0	1.823165305e-6	-8.105447027e-9
8.0	0.0001013296103	8.574166716e-8	-6.125725691e-8	-2.076746456e-7	0.0	3.079284552e-6	-1.36496278e-8
9.0	0.0001280717936	1.360101736e-7	-9.768301898e-8	-3.283165137e-7	0.0	4.887427716e-6	-2.15920793e-8
10.0	0.000157879369	2.053396984e-7	-1.483381333e-7	-4.937422524e-7	0.0	7.383480596e-6	-3.249668269e-8
11.0	0.0001907271467	2.977730832e-7	-2.164917461e-7	-7.128224762e-7	0.0	1.071473173e-5	-4.696139548e-8
12.0	0.0002265874619	4.176125269e-7	-3.057329521e-7	-9.946848585e-7	0.0	1.50385381e-5	-6.560883427e-8
13.0	0.0002654300527	5.693768614e-7	-4.199626063e-7	-1.34852429e-6	0.0	2.052092828e-5	-8.907644502e-8
14.0	0.0003072219185	7.577573956e-7	-5.633836544e-7	-1.783400469e-6	0.0	2.733515835e-5	-1.180063891e-7
15.0	0.0003519271637	9.875727818e-7	-7.404897991e-7	-2.308024258e-6	0.0	3.566023513e-5	-1.530352679e-7
16.0	0.0003995068316	1.263723343e-6	-9.560522768e-7	-2.930534031e-6	0.0	4.567942053e-5	-1.947838086e-7
17.0	0.0004499187318	1.591145307e-6	-1.215104616e-6	-3.658263753e-6	0.0	5.757873116e-5	-2.438466312e-7
18.0	0.0005031172667	1.974765372e-6	-1.522925171e-6	-4.497504246e-6	0.0	7.154544624e-5	-3.007822175e-7
19.0	0.00055905326	2.419455947e-6	-1.885017335e-6	-5.453259291e-6	0.0	8.776663475e-5	-3.661031784e-7
20.0	0.0006176737922	2.929991505e-6	-2.307087355e-6	-6.528998716e-6	0.0	0.0001064277147	-4.402669381e-7
21.0	0.0006789220468	3.511006358e-6	-2.795019629e-6	-7.726410157e-6	0.0	0.0001277110548	-5.236669268e-7
22.0	0.0007427371693	4.166954164e-6	-3.35484954e-6	-9.045151695e-6	0.0	0.0001517946261	-6.166243627e-7
23.0	0.000809054144	4.902069476e-6	-3.992733794e-6	-1.048260758e-5	0.0	0.0001788507156	-7.193807156e-7
24.0	0.0008778036902	5.72033158e-6	-4.714918359e-6	-1.203364927e-5	0.0	0.0002090447052	-8.320909122e-7
25.0	0.0009489121807	6.625430855e-6	-5.527704104e-6	-1.369040421e-5	0.0	0.000242533927	-9.548173506e-7
26.0	0.001022301585	7.620737839e-6	-6.437410284e-6	-1.544203479e-5	0.0	0.0002794665964	-1.087524773e-6
27.0	0.001097889437	8.709275196e-6	-7.450336086e-6	-1.727452998e-5	0.0	0.0003199808302	-1.230076041e-6
28.0	0.001175588835	9.893692683e-6	-8.572720441e-6	-1.917051221e-5	0.0	0.0003642037532	-1.38222884e-6
29.0	0.001255308462	1.117624525e-5	-9.8107004e-6	-2.110906194e-5	0.0	0.0004122506942	-1.543633342e-6
30.0	0.001336952648	1.255877435e-5	-1.117026835e-5	-2.306556253e-5	0.0	0.0004642244756	-1.713830838e-6
31.0	0.001420421447	1.404269245e-5	-1.265722844e-5	-2.501156787e-5	0.0	0.0005202147954	-1.892253336e-6
32.0	0.001505610757	1.562897085e-5	-1.427715251e-5	-2.69146951e-5	0.0	0.000580297704	-2.07822413e-6
33.0	0.001592412464	1.731813074e-5	-1.603533599e-5	-2.87385447e-5	0.0	0.0006445351734	-2.270959319e-6
34.0	0.001680714614	1.911023749e-5	-1.793675406e-5	-3.044265018e-5	0.0	0.0007129747581	-2.46957025e-6
35.0	0.001770401616	2.100489802e-5	-1.998601856e-5	-3.198245913e-5	0.0	0.0007856493474	-2.673066872e-6
36.0	0.001861354471	2.300126141e-5	-2.2187336e-5	-3.330934762e-5	0.0	0.0008625770038	-2.880361937e-6
37.0	0.001953451029	2.509802233e-5	-2.454446708e-5	-3.437066932e-5	0.0	0.0009437608878	-3.090276026e-6
38.0	0.002046566266	2.729342745e-5	-2.706068813e-5	-3.510984056e-5	0.0	0.001029189263	-3.301543348e-6
39.0	0.002140572587	2.958528454e-5	-2.973875484e-5	-3.546646247e-5	0.0	0.001118835582	-3.51281824e-6
40.0	0.002235340153	3.197097414e-5	-3.258086869e-5	-3.537648069e-5	0.0	0.00121265864	-3.722682331e-6
41.0	0.002330737217	3.444746367e-5	-3.558864631e-5	-3.477238295e-5	0.0	0.001310602809	-3.92965229e-6
42.0	0.002426630488	3.701132382e-5	-3.876309222e-5	-3.358343475e-5	0.0	0.001412598325	-4.132188099e-6
43.0	0.0025228855	3.965874694e-5	-4.21045752e-5	-3.173595239e-5	0.0	0.001518561645	-4.328701778e-6
44.0	0.002619366999	4.238556737e-5	-4.561280845e-5	-2.915361291e-5	0.0	0.001628395859	-4.517566495e-6
45.0	0.002715939339	4.518728347e-5	-4.92868339e-5	-2.575779957e-5	0.0	0.001741991151	-4.697125979e-6
46.0	0.002812466881	4.805908105e-5	-5.312501079e-5	-2.146798155e-5	0.0	0.001859225305	-4.865704175e-6
47.0	0.002908814402	5.09958582e-5	-5.71250086e-5	-1.620212582e-5	0.0	0.001979964266	-5.021615055e-6
48.0	0.003004847504	5.399225119e-5	-6.128380452e-5	-9.877139022e-6	0.0	0.002104062721	-5.163172523e-6
49.0	0.003100433022	5.704266116e-5	-6.559768549e-5	-2.40933682e-6	0.0	0.002231364728	-5.288700331e-6
50.0	0.003195439435	6.01412817e-5	-7.006225475e-5	6.285062298e-6	0.0	0.002361704367	-5.396541942e-6
51.0	0.003289737265	6.328212677e-5	-7.467244303e-5	1.628942196e-5	0.0	0.002494906418	-5.485070275e-6
52.0	0.003383199472	6.645905902e-5	-7.942252409e-5	2.76861551e-5	0.0	0.002630787062	-5.552697255e-6
53.0	0.003475701847	6.966581825e-5	-8.430613471e-5	4.055617722e-5	0.0	0.002769154596	-5.597883108e-6
54.0	0.003567123384	7.289604982e-5	-8.931629885e-5	5.497834962e-5	0.0	0.002909810164	-5.619145355e-6
55.0	0.003657346642	7.614333288e-5	-9.444545578e-5	7.102891687e-5	0.0	0.003052548501	-5.615067426e-6
56.0	0.003746258102	7.940120821e-5	-9.968549213e-5	8.878094283e-5	0.0	0.003197158676	-5.584306858e-6
57.0	0.003833748491	8.266320563e-5	-0.0001050277773	0.0001083037496	0.0	0.003343424851	-5.52560302e-6
58.0	0.003919713105	8.592287065e-5	-0.0001104632024	0.000129662364	0.0	0.003491127033	-5.437784331e-6
59.0	0.004004052104	8.917379052e-5	-0.0001159822216	0.000152916976	0.0	0.003640041828	-5.319774913e-6
60.0	0.004086670785	9.240961919e-5	-0.0001215748972	0.0001781224136	0.0	0.00378994319	-5.17060067e-6
61.0	0.004167479842	9.562410148e-5	-0.0001272309455	0.0002053276391	0.0	0.003940603171	-4.989394735e-6
62.0	0.004246395599	9.881109602e-5	-0.0001329397858	0.0002345752699	0.0	0.004091792653	-4.775402286e-6
63.0	0.004323340218	0.0001019645971	-0.0001386905904	0.0002659011292	0.0	0.00424328208	-4.527984689e-6
64.0	0.004398241888	0.0001050787552	-0.0001444723359	0.0002993338306	0.0	0.004394842176	-4.246622963e-6
65.0	0.004471034986	0.0001081478962	-0.0001502738554	0.0003348943991	0.0	0.004546244648	-3.930920561e-6
66.0	0.004541660216	0.0001111665395	-0.000156083891	0.0003725959335	0.0	0.004697262881	-3.580605449e-6
67.0	0.004610064726	0.0001141294144	-0.000161891146	0.0004124433123	0.0	0.004847672608	-3.195531485e-6
68.0	0.004676202193	0.000117031475	-0.0001676843379	0.000454432947	0.0	0.004997252578	-2.77567911e-6
69.0	0.004740032887	0.0001198679139	-0.0001734522491	0.0004985525843	0.0	0.00514578519	-2.321155351e-6
70.0	0.004801523716	0.0001226341747	-0.0001791837782	0.0005447811599	0.0	0.005293057124	-1.832193139e-6
71.0	0.004860648236	0.0001253259621	-0.0001848679888	0.0005930887054	0.0	0.00543885994	-1.309149978e-6
72.0	0.004917386648	0.0001279392516	-0.0001904941573	0.0006434363102	0.0	0.005582990664	-7.525059645e-7
73.0	0.004971725764	0.0001304702968	-0.0001960518183	0.0006957761384	0.0	0.005725252349	-1.628611959e-7
74.0	0.005023658952	0.0001329156361	-0.0002015308082	0.0007500515015	0.0	0.005865454617	4.590674227e-7
75.0	0.005073186064	0.0001352720976	-0.0002069213062	0.0008061969873	0.0	0.006003414174	1.112449929e-6
76.0	0.005120313336	0.0001375368024	-0.0002122138729	0.000864138644	0.0	0.006138955302	1.796347589e-6
77.0	0.00516505327	0.0001397071668	-0.0002173994852	0.0009237942189	0.0	0.006271910331	2.50971768e-6
78.0	0.0052074245	0.0001417809035	-0.0002224695695	0.00098507345	0.0	0.006402120077	3.25141874e-6
79.0	0.005247451635	0.0001437560213	-0.0002274160309	0.00104787841	0.0	0.006529434261	4.020216235e-6
80.0	0.005285165089	0.0001456308232	-0.0002322312793	0.001112103899	0.0	0.006653711896	4.814788614e-6
81.0	0.005320600887	0.0001474039042	-0.0002369082522	0.001177637883	0.0	0.006774821652	5.633733713e-6
82.0	0.005353800465	0.0001490741474	-0.0002414404347	0.001244361979	0.0	0.006892642183	6.475575456e-6
83.0	0.005384810452	0.0001506407194	-0.0002458218753	0.001312151979	0.0	0.007007062436	7.338770819e-6
84.0	0.005413682439	0.0001521030645	-0.0002500471988	0.001380878412	0.0	0.007117981918	8.221717011e-6
85.0	0.005440472735	0.0001534608984	-0.0002541116159	0.001450407139	0.0	0.007225310945	9.122758827e-6
86.0	0.005465242114	0.0001547142007	-0.0002580109292	0.001520599977	0.0	0.007328970849	1.004019614e-5
87.0	0.005488055557	0.0001558632072	-0.0002617415365	0.001591315351	0.0	0.007428894155	1.097229149e-5
88.0	0.005508981979	0.0001569084007	-0.0002653004303	0.001662408967	0.0	0.007525024732	1.191727768e-5
89.0	0.00552809395	0.0001578505019	-0.000268685195	0.001733734494	0.0	0.007617317906	1.287336544e-5
90.0	0.005545467418	0.0001586904597	-0.0002718940007	0.00180514427	0.0	0.007705740534	1.383875101e-5
91.0	0.00556118142	0.0001594294404	-0.0002749255949	0.001876490006	0.0	0.007790271058	1.481162369e-5
92.0	0.005575317791	0.0001600688177	-0.0002777792904	0.001947623497	0.0	0.00787089951	1.579017326e-5
93.0	0.005587960873	0.0001606101608	-0.0002804549527	0.00201839733	0.0	0.007947627494	1.677259721e-5
94.0	0.005599197224	0.0001610552236	-0.0002829529833	0.002088665583	0.0	0.008020468126	1.775710794e-5
95.0	0.005609115322	0.0001614059331	-0.0002852743019	0.002158284523	0.0	0.008089445943	1.874193958e-5
96.0	0.005617805277	0.0001616643772	-0.0002874203273	0.00222711327	0.0	0.00815459678	1.972535466e-5
97.0	0.005625358536	0.0001618327936	-0.000289392955	0.002295014465	0.0	0.008215967603	2.070565054e-5
98.0	0.005631867603	0.0001619135573	-0.0002911945354	0.002361854894	0.0	0.008273616324	2.16811655e-5
99.0	0.005637425754	0.0001619091687	-0.000292827849	0.002427506098	0.0	0.008327611564	2.26502845e-5
100.0	0.005642126756	0.0001618222425	-0.0002942960815	0.002491844945	0.0	0.0083780324	2.361144468e-5
101.0	0.0056460646	0.000161655495	-0.0002956027982	0.002554754176	0.0	0.00842496807	2.456314046e-5
102.0	0.005649333234	0.000161411733	-0.0002967519168	0.002616122904	0.0	0.008468517649	2.550392828e-5
103.0	0.005652026303	0.0001610938423	-0.0002977476807	0.00267584708	0.0	0.008508789695	2.643243096e-5
104.0	0.005654236899	0.0001607047766	-0.0002985946315	0.00273382992	0.0	0.008545901866	2.73473417e-5
105.0	0.005656057318	0.0001602475459	-0.0002992975814	0.002789982279	0.0	0.008579980511	2.824742762e-5
106.0	0.005657578828	0.0001597252068	-0.0002998615859	0.002844222989	0.0	0.008611160228	2.913153295e-5
107.0	0.005658891446	0.0001591408509	-0.0003002919163	0.002896479142	0.0	0.008639583407	2.999858182e-5
108.0	0.005660083719	0.0001584975959	-0.0003005940327	0.002946686335	0.0	0.008665399738	3.08475806e-5
109.0	0.005661242524	0.0001577985748	-0.0003007735579	0.002994788856	0.0	0.008688765706	3.167761983e-5
110.0	0.005662452875	0.0001570469274	-0.0003008362506	0.003040739827	0.0	0.008709844062	3.248787582e-5
111.0	0.005663797736	0.0001562457908	-0.0003007879811	0.003084501301	0.0	0.008728803278	3.327761175e-5
112.0	0.005665357854	0.0001553982908	-0.0003006347061	0.003126044304	0.0	0.008745816983	3.404617846e-5
113.0	0.005667211597	0.0001545075343	-0.0003003824454	0.003165348835	0.0	0.008761063387	3.479301481e-5
114.0	0.005669434806	0.0001535766008	-0.0003000372593	0.003202403815	0.0	0.008774724693	3.551764767e-5
115.0	0.005672100654	0.0001526085356	-0.0002996052264	0.003237206995	0.0	0.0087869865	3.621969158e-5
116.0	0.005675279526	0.0001516063429	-0.0002990924239	0.003269764818	0.0	0.008798037195	3.689884805e-5
117.0	0.005679038902	0.000150572979	-0.000298504907	0.003300092235	0.0	0.008808067346	3.755490449e-5
118.0	0.005683443251	0.0001495113468	-0.0002978486913	0.003328212494	0.0	0.008817269084	3.818773286e-5
119.0	0.005688553947	0.0001484242898	-0.0002971297353	0.003354156871	0.0	0.008825835493	3.879728805e-5
120.0	0.005694429183	0.0001473145873	-0.0002963539242	0.003377964385	0.0	0.008833959996	3.938360589e-5
121.0	0.005701123906	0.0001461849497	-0.0002955270551	0.003399681469	0.0	0.008841835746	3.994680097e-5
122.0	0.005708689756	0.0001450380139	-0.0002946548233	0.003419361615	0.0	0.008849655025	4.048706422e-5
123.0	0.005717175025	0.0001438763398	-0.0002937428096	0.003437064989	0.0	0.00885760865	4.100466017e-5
124.0	0.005726624613	0.0001427024071	-0.0002927964686	0.003452858023	0.0	0.008865885391	4.149992416e-5
125.0	0.00573708001	0.0001415186115	-0.0002918211189	0.003466812987	0.0	0.0088746714	4.197325919e-5
126.0	0.005748579274	0.0001403272631	-0.0002908219333	0.003479007544	0.0	0.008884149657	4.242513277e-5
127.0	0.005761157032	0.0001391305831	-0.0002898039306	0.00348952428	0.0	0.00889449943	4.28560735e-5
128.0	0.005774844474	0.0001379307029	-0.0002887719688	0.003498450236	0.0	0.008905895758	4.326666759e-5
129.0	0.005789669377	0.000136729662	-0.0002877307381	0.00350587642	0.0	0.008918508951	4.365755528e-5
130.0	0.005805656115	0.0001355294072	-0.0002866847563	0.003511897316	0.0	0.008932504113	4.402942713e-5
131.0	0.005822825699	0.0001343317912	-0.0002856383637	0.003516610391	0.0	0.00894804069	4.438302027e-5
132.0	0.005841195806	0.0001331385729	-0.0002845957196	0.003520115603	0.0	0.00896527204	4.471911466e-5
133.0	0.00586078083	0.0001319514166	-0.0002835607999	0.003522514903	0.0	0.008984345033	4.50385292e-5
134.0	0.005881591933	0.0001307718923	-0.000282537394	0.003523911754	0.0	0.009005399681	4.534211792e-5
135.0	0.005903637105	0.000129601476	-0.0002815291044	0.003524410646	0.0	0.009028568784	4.563076619e-5
136.0	0.005926921226	0.0001284415503	-0.000280539345	0.00352411663	0.0	0.009053977626	4.590538684e-5
137.0	0.005951446142	0.0001272934054	-0.0002795713411	0.003523134857	0.0	0.00908174368	4.616691648e-5
138.0	0.005977210742	0.0001261582399	-0.0002786281299	0.003521570136	0.0	0.009111976358	4.641631171e-5
139.0	0.006004211038	0.0001250371622	-0.0002777125612	0.003519526506	0.0	0.009144776792	4.66545455e-5
140.0	0.006032440251	0.0001239311923	-0.0002768272983	0.003517106825	0.0	0.009180237634	4.688260362e-5
141.0	0.006061888908	0.0001228412629	-0.0002759748199	0.003514412379	0.0	0.009218442905	4.710148114e-5
142.0	0.006092544932	0.0001217682217	-0.0002751574222	0.003511542513	0.0	0.009259467865	4.731217903e-5
143.0	0.006124393744	0.000120712833	-0.0002743772209	0.003508594283	0.0	0.009303378913	4.751570091e-5
144.0	0.006157418362	0.0001196757799	-0.0002736361542	0.003505662128	0.0	0.009350233532	4.771304986e-5
145.0	0.006191599507	0.000118657667	-0.0002729359855	0.003502837573	0.0	0.009400080247	4.79052254e-5
146.0	0.006226915714	0.000117659022	-0.0002722783063	0.003500208944	0.0	0.009452958628	4.809322057e-5
147.0	0.006263343435	0.0001166802985	-0.0002716645402	0.003497861125	0.0	0.009508899318	4.827801916e-5
148.0	0.00630085715	0.0001157218785	-0.0002710959457	0.003495875324	0.0	0.009567924085	4.846059306e-5
149.0	0.006339429486	0.000114784075	-0.0002705736204	0.003494328871	0.0	0.009630045913	4.864189981e-5
150.0	0.006379031322	0.0001138671345	-0.0002700985048	0.003493295046	0.0	0.009695269113	4.882288024e-5
151.0	0.006419631905	0.0001129712396	-0.000269671386	0.003492842921	0.0	0.009763589459	4.900445626e-5
152.0	0.006461198967	0.0001120965123	-0.0002692929019	0.003493037239	0.0	0.009834994357	4.918752888e-5
153.0	0.006503698834	0.0001112430156	-0.0002689635455	0.003493938307	0.0	0.009909463033	4.937297624e-5
154.0	0.006547096542	0.0001104107575	-0.0002686836691	0.003495601919	0.0	0.009986966738	4.956165194e-5
155.0	0.006591355953	0.0001095996928	-0.0002684534886	0.003498079301	0.0	0.01006746899	4.975438342e-5
156.0	0.00663643986	0.0001088097263	-0.000268273088	0.003501417076	0.0	0.01015092582	4.995197053e-5
157.0	0.006682310104	0.0001080407155	-0.0002681424235	0.003505657254	0.0	0.01023728605	5.015518424e-5
158.0	0.006728927682	0.0001072924729	-0.0002680613286	0.003510837237	0.0	0.01032649157	5.036476548e-5
159.0	0.006776252857	0.0001065647693	-0.0002680295182	0.003516989853	0.0	0.01041847765	5.058142412e-5
160.0	0.006824245259	0.0001058573359	-0.0002680465933	0.003524143397	0.0	0.01051317326	5.080583814e-5
161.0	0.006872863999	0.0001051698673	-0.0002681120457	0.003532321695	0.0	0.01061050139	5.103865284e-5
162.0	0.006922067762	0.0001045020236	-0.0002682252626	0.003541544189	0.0	0.0107103794	5.128048023e-5
163.0	0.006971814913	0.0001038534333	-0.0002683855314	0.003551826026	0.0	0.01081271939	5.153189859e-5
164.0	0.007022063595	0.0001032236956	-0.000268592044	0.003563178167	0.0	0.01091742849	5.179345203e-5
165.0	0.007072771822	0.0001026123825	-0.0002688439022	0.00357560751	0.0	0.01102440932	5.206565027e-5
166.0	0.00712389757	0.0001020190418	-0.0002691401219	0.00358911702	0.0	0.01113356029	5.234896849e-5
167.0	0.007175398874	0.0001014431984	-0.0002694796378	0.00360370587	0.0	0.01124477599	5.264384724e-5
168.0	0.007227233907	0.0001008843574	-0.0002698613088	0.003619369591	0.0	0.01135794758	5.295069253e-5
169.0	0.007279361069	0.0001003420055	-0.000270283922	0.00363610023	0.0	0.01147296317	5.326987595e-5
170.0	0.007331739064	9.981561349e-5	-0.0002707461982	0.003653886515	0.0	0.01158970814	5.360173488e-5
171.0	0.007384326981	9.930463784e-5	-0.0002712467958	0.003672714021	0.0	0.01170806559	5.394657281e-5
172.0	0.007437084369	9.880852286e-5	-0.0002717843166	0.003692565346	0.0	0.01182791667	5.430465968e-5
173.0	0.007489971302	9.832670238e-5	-0.0002723573096	0.003713420282	0.0	0.01194914093	5.467623238e-5
174.0	0.007542948454	9.785860146e-5	-0.0002729642764	0.003735255997	0.0	0.01207161671	5.506149519e-5
175.0	0.00759597716	9.740363806e-5	-0.0002736036755	0.003758047212	0.0	0.01219522148	5.546062039e-5
176.0	0.007649019478	9.696122462e-5	-0.0002742739272	0.003781766379	0.0	0.01231983219	5.587374885e-5
177.0	0.007702038245	9.653076953e-5	-0.0002749734181	0.003806383857	0.0	0.01244532559	5.630099069e-5
178.0	0.007754997135	9.611167853e-5	-0.0002757005058	0.003831868092	0.0	0.01257157859	5.674242601e-5
179.0	0.007807860705	9.570335611e-5	-0.0002764535235	0.003858185788	0.0	0.01269846855	5.71981056e-5
180.0	0.007860594448	9.530520674e-5	-0.0002772307841	0.003885302075	0.0	0.01282587358	5.766805174e-5
181.0	0.007913164832	9.491663607e-5	-0.0002780305852	0.003913180683	0.0	0.01295367287	5.8152259e-5
182.0	0.007965539344	9.453705207e-5	-0.000278851213	0.003941784098	0.0	0.01308174695	5.865069505e-5
183.0	0.008017686528	9.41658661e-5	-0.0002796909468	0.003971073722	0.0	0.01320997796	5.916330154e-5
184.0	0.008069576016	9.38024939e-5	-0.0002805480628	0.004001010028	0.0	0.01333824991	5.968999495e-5
185.0	0.008121178564	9.344635649e-5	-0.0002814208388	0.004031552706	0.0	0.01346644891	6.023066747e-5
186.0	0.008172466073	9.30968811e-5	-0.0002823075575	0.004062660802	0.0	0.01359446345	6.078518794e-5
187.0	0.008223411621	9.275350194e-5	-0.0002832065109	0.004094292861	0.0	0.01372218457	6.135340269e-5
188.0	0.008273989479	9.241566096e-5	-0.0002841160036	0.004126407048	0.0	0.01384950605	6.193513649e-5
189.0	0.008324175134	9.208280857e-5	-0.0002850343568	0.004158961278	0.0	0.01397632466	6.253019346e-5
190.0	0.0083739453	9.175440426e-5	-0.0002859599112	0.00419191333	0.0	0.01410254028	6.313835798e-5
191.0	0.008423277935	9.14299172e-5	-0.000286891031	0.004225220955	0.0	0.01422805609	6.375939562e-5
192.0	0.008472152249	9.11088268e-5	-0.0002878261065	0.004258841985	0.0	0.01435277871	6.439305401e-5
193.0	0.00852054871	9.07906232e-5	-0.0002887635577	0.004292734428	0.0	0.01447661831	6.503906383e-5
194.0	0.008568449051	9.047480774e-5	-0.0002897018365	0.004326856555	0.0	0.01459948877	6.569713961e-5
